'hits'	'#games'	'Freq'
0	20	0.001
1	72	0.0037
2	209	0.0108
3	527	0.0272
4	1048	0.0541
5	1457	0.0752
6	1988	0.1026
7	2256	0.1164
8	2403	0.124
9	2256	0.1164
10	1967	0.1015
11	1509	0.0779
12	1230	0.0635
13	834	0.043
14	569	0.0294
15	393	0.0203
16	253	0.0131
17	171	0.0088
18	97	0.005
19	53	0.0027
20	31	0.0016
21	19	0.001
22	13	0.0007
23	5	0.0003
24	1	0.0001
25	0	0
26	1	0.0001
27	1	0.0001
